#ZONE  TEMP.           FRAC. RADIUS  ABS(dR/R)       PH(dR/R)        ABS(dT/T)       PH(dT/T)        ABS(dL/L)       PH(dL/L)        ABS(dE_T)       PH(dE_T)
150    0.200114E+07    0.519396E+00  0.33657629E-03 -0.77811587E-01  0.74252036E-02  0.30637912E+01  0.15246803E-01  0.30638337E+01  0.00000000E+00  0.00000000E+00
149    0.187841E+07    0.534982E+00  0.71232897E-03 -0.77810916E-01  0.94128239E-02  0.30637864E+01  0.23489489E-01  0.30638258E+01  0.00000000E+00  0.00000000E+00
148    0.176440E+07    0.550152E+00  0.11219414E-02 -0.77809653E-01  0.11464868E-01  0.30637803E+01  0.33226403E-01  0.30637739E+01  0.00000000E+00  0.00000000E+00
147    0.165855E+07    0.564904E+00  0.15579228E-02 -0.77810416E-01  0.13499996E-01  0.30637813E+01  0.43914357E-01  0.30637971E+01  0.00000000E+00  0.00000000E+00
146    0.156028E+07    0.579240E+00  0.20105755E-02 -0.77811582E-01  0.15418039E-01  0.30637781E+01  0.55469555E-01  0.30638240E+01  0.00000000E+00  0.00000000E+00
145    0.146916E+07    0.593165E+00  0.24680759E-02 -0.77812576E-01  0.17100476E-01  0.30637669E+01  0.74138448E+01 -0.77636536E-01  0.68066820E-11  0.44783243E+00
144    0.138472E+07    0.606686E+00  0.29165738E-02 -0.77815306E-01  0.18411974E-01  0.30637690E+01  0.61461177E+01 -0.77706969E-01  0.72895657E-11  0.44785230E+00
143    0.130636E+07    0.619810E+00  0.33403413E-02 -0.77818409E-01  0.19202881E-01  0.30637627E+01  0.49031679E+01 -0.77689916E-01  0.75561352E-11  0.44780691E+00
142    0.123361E+07    0.632546E+00  0.37220683E-02 -0.77821980E-01  0.19312723E-01  0.30637541E+01  0.37228036E+01 -0.77689873E-01  0.75389523E-11  0.44779373E+00
141    0.116611E+07    0.644904E+00  0.40432437E-02 -0.77826185E-01  0.18574678E-01  0.30637425E+01  0.26207213E+01 -0.77697631E-01  0.71671117E-11  0.44777735E+00
140    0.110350E+07    0.656896E+00  0.42845415E-02 -0.77831196E-01  0.16821044E-01  0.30637246E+01  0.16091740E+01 -0.77725902E-01  0.63693971E-11  0.44774951E+00
139    0.104537E+07    0.668532E+00  0.44262615E-02 -0.77837248E-01  0.13889603E-01  0.30636930E+01  0.70384222E+00 -0.77771749E-01  0.50769322E-11  0.44771151E+00
138    0.991337E+06    0.679825E+00  0.44488634E-02 -0.77844830E-01  0.96307743E-02  0.30636254E+01  0.84719190E-01  0.30651099E+01  0.32254067E-11  0.44761384E+00
137    0.941107E+06    0.690787E+00  0.43335484E-02 -0.77854562E-01  0.39154939E-02  0.30633195E+01  0.75474726E+00  0.30640526E+01  0.75857517E-12  0.44679324E+00
136    0.894455E+06    0.701431E+00  0.40628382E-02 -0.77867727E-01  0.33562107E-02 -0.77184906E-01  0.13037743E+01  0.30640011E+01  0.23644866E-11 -0.26934253E+01
135    0.851072E+06    0.711768E+00  0.36212079E-02 -0.77886836E-01  0.12246028E-01 -0.77617632E-01  0.17268568E+01  0.30639865E+01  0.61675667E-11 -0.26936321E+01
134    0.810599E+06    0.721810E+00  0.29958185E-02 -0.77917710E-01  0.22768095E-01 -0.77696774E-01  0.20233345E+01  0.30639767E+01  0.10655484E-10 -0.26936915E+01
133    0.772718E+06    0.731566E+00  0.21772710E-02 -0.77978152E-01  0.34879933E-01 -0.77731803E-01  0.21984766E+01  0.30639733E+01  0.15808313E-10 -0.26937234E+01
132    0.737133E+06    0.741044E+00  0.11603622E-02 -0.78160198E-01  0.48474057E-01 -0.77752664E-01  0.22655485E+01  0.30639707E+01  0.21581872E-10 -0.26937452E+01
131    0.703645E+06    0.750252E+00  0.55313879E-04  0.30717554E+01  0.63370440E-01 -0.77767550E-01  0.22333661E+01  0.30639711E+01  0.27897639E-10 -0.26937624E+01
130    0.672069E+06    0.759196E+00  0.14647743E-02  0.30641016E+01  0.79310325E-01 -0.77779360E-01  0.21160238E+01  0.30639731E+01  0.34643078E-10 -0.26937765E+01
129    0.642236E+06    0.767883E+00  0.30571680E-02  0.30639403E+01  0.95951553E-01 -0.77789567E-01  0.19273249E+01  0.30639784E+01  0.41670758E-10 -0.26937893E+01
128    0.614009E+06    0.776318E+00  0.48154230E-02  0.30638827E+01  0.11286547E+00 -0.77798944E-01  0.16844641E+01  0.30639852E+01  0.48795668E-10 -0.26938021E+01
127    0.587263E+06    0.784508E+00  0.67160324E-02  0.30638517E+01  0.12953574E+00 -0.77808172E-01  0.13999015E+01  0.30640004E+01  0.55798196E-10 -0.26938144E+01
126    0.561914E+06    0.792458E+00  0.87290711E-02  0.30638311E+01  0.14535860E+00 -0.77817478E-01  0.10772546E+01  0.30640275E+01  0.62417204E-10 -0.26938269E+01
125    0.537853E+06    0.800174E+00  0.10818150E-01  0.30638157E+01  0.15964620E+00 -0.77827379E-01  0.73866342E+00  0.30640830E+01  0.68356739E-10 -0.26938410E+01
124    0.514965E+06    0.807661E+00  0.12940558E-01  0.30638031E+01  0.17163207E+00 -0.77838328E-01  0.39894758E+00  0.30642447E+01  0.73288312E-10 -0.26938557E+01
123    0.493183E+06    0.814924E+00  0.15047779E-01  0.30637919E+01  0.18047806E+00 -0.77850695E-01  0.60963795E-01  0.30662128E+01  0.76847458E-10 -0.26938721E+01
122    0.472444E+06    0.821968E+00  0.17085987E-01  0.30637815E+01  0.18528403E+00 -0.77865378E-01  0.26223644E+00 -0.78252411E-01  0.78642280E-10 -0.26938920E+01
121    0.452679E+06    0.828798E+00  0.18996629E-01  0.30637714E+01  0.18509888E+00 -0.77883613E-01  0.55760806E+00 -0.77973693E-01  0.78258867E-10 -0.26939154E+01
120    0.433843E+06    0.835419E+00  0.20717230E-01  0.30637612E+01  0.17893219E+00 -0.77907241E-01  0.82405659E+00 -0.77897494E-01  0.75265056E-10 -0.26939448E+01
119    0.415894E+06    0.841837E+00  0.22182202E-01  0.30637505E+01  0.16576767E+00 -0.77940235E-01  0.10563499E+01 -0.77864791E-01  0.69218842E-10 -0.26939885E+01
118    0.398779E+06    0.848057E+00  0.23323643E-01  0.30637390E+01  0.14457808E+00 -0.77991460E-01  0.12403989E+01 -0.77852143E-01  0.59672209E-10 -0.26940577E+01
117    0.382449E+06    0.854083E+00  0.24072273E-01  0.30637263E+01  0.11434003E+00 -0.78083663E-01  0.13696462E+01 -0.77849405E-01  0.46173174E-10 -0.26941832E+01
116    0.366874E+06    0.859921E+00  0.24358413E-01  0.30637117E+01  0.74049285E-01 -0.78305842E-01  0.14431839E+01 -0.77852018E-01  0.28278259E-10 -0.26945183E+01
115    0.352029E+06    0.865576E+00  0.24112869E-01  0.30636946E+01  0.22737467E-01 -0.79684057E-01  0.14507917E+01 -0.77860984E-01  0.55688343E-11 -0.26980350E+01
114    0.337867E+06    0.871054E+00  0.23267815E-01  0.30636735E+01  0.40511523E-01  0.30649945E+01  0.13807015E+01 -0.77878483E-01  0.22359972E-10  0.44901897E+00
113    0.324344E+06    0.876360E+00  0.21757766E-01  0.30636463E+01  0.11654544E+00  0.30642652E+01  0.12264981E+01 -0.77906540E-01  0.55891036E-10  0.44836725E+00
112    0.311425E+06    0.881498E+00  0.19520475E-01  0.30636090E+01  0.20612835E+00  0.30640947E+01  0.97991299E+00 -0.77962881E-01  0.95363181E-10  0.44819248E+00
111    0.299073E+06    0.886473E+00  0.16497839E-01  0.30635524E+01  0.30992603E+00  0.30640202E+01  0.63540103E+00 -0.78080922E-01  0.14108075E-09  0.44812633E+00
110    0.287257E+06    0.891289E+00  0.12636709E-01  0.30634527E+01  0.42849240E+00  0.30639816E+01  0.17646826E+00 -0.79003940E-01  0.19329158E-09  0.44809902E+00
109    0.275945E+06    0.895951E+00  0.78896883E-02  0.30632145E+01  0.56225774E+00  0.30639598E+01  0.40098313E+00  0.30644738E+01  0.25217903E-09  0.44808025E+00
108    0.265100E+06    0.900463E+00  0.22160779E-02  0.30616544E+01  0.71152042E+00  0.30639471E+01  0.10866104E+01  0.30640740E+01  0.31788714E-09  0.44808230E+00
107    0.254687E+06    0.904829E+00  0.44174287E-02 -0.76714700E-01  0.87643759E+00  0.30639426E+01  0.18910780E+01  0.30639215E+01  0.39050591E-09  0.44813285E+00
106    0.244682E+06    0.909052E+00  0.12036210E-01 -0.77412124E-01  0.10570165E+01  0.30639490E+01  0.28628971E+01  0.30639282E+01  0.47003097E-09  0.44817407E+00
105    0.235053E+06    0.913136E+00  0.20656951E-01 -0.77590375E-01  0.12531168E+01  0.30639584E+01  0.39722122E+01  0.30640003E+01  0.55637264E-09  0.44814108E+00
104    0.225757E+06    0.917082E+00  0.30286366E-01 -0.77674627E-01  0.14644612E+01  0.30639636E+01  0.51257682E+01  0.30639022E+01  0.64943438E-09  0.44819905E+00
103    0.216761E+06    0.920894E+00  0.40920972E-01 -0.77727887E-01  0.16906318E+01  0.30639850E+01  0.64144554E+01  0.30638808E+01  0.74903377E-09  0.44835196E+00
102    0.208047E+06    0.924574E+00  0.52547130E-01 -0.77767856E-01  0.19310800E+01  0.30640180E+01  0.78663393E+01  0.30640073E+01  0.85482162E-09  0.44835954E+00
101    0.199579E+06    0.928123E+00  0.65139836E-01 -0.77798628E-01  0.21851720E+01  0.30640413E+01  0.93479942E+01  0.30640490E+01  0.96644674E-09  0.44830753E+00
100    0.191320E+06    0.931543E+00  0.78662046E-01 -0.77823289E-01  0.24522038E+01  0.30640652E+01  0.10816517E+02  0.30640983E+01  0.10836045E-08  0.44829329E+00
 99    0.183243E+06    0.934835E+00  0.93064985E-01 -0.77843243E-01  0.27314065E+01  0.30640879E+01  0.12227249E+02  0.30641816E+01  0.12060027E-08  0.44820487E+00
 98    0.175327E+06    0.937999E+00  0.10828881E+00 -0.77858439E-01  0.30219641E+01  0.30641012E+01  0.13507620E+02  0.30642793E+01  0.13333504E-08  0.44799117E+00
 97    0.167562E+06    0.941035E+00  0.12426403E+00 -0.77868159E-01  0.33230359E+01  0.30640977E+01  0.14580029E+02  0.30642950E+01  0.14653401E-08  0.44778669E+00
 96    0.159951E+06    0.943946E+00  0.14091403E+00 -0.77873035E-01  0.36337719E+01  0.30640898E+01  0.15445703E+02  0.30640629E+01  0.16016628E-08  0.44808072E+00
 95    0.152520E+06    0.946731E+00  0.15815922E+00 -0.77877794E-01  0.39532793E+01  0.30641319E+01  0.16282825E+02  0.30642937E+01  0.17420946E-08  0.44811476E+00
 94    0.145300E+06    0.949393E+00  0.17592024E+00 -0.77879324E-01  0.42807191E+01  0.30641375E+01  0.16974677E+02  0.30642022E+01  0.18864446E-08  0.44799085E+00
 93    0.138326E+06    0.951936E+00  0.19412101E+00 -0.77879469E-01  0.46152684E+01  0.30641659E+01  0.17587880E+02  0.30631447E+01  0.20342437E-08  0.45021848E+00
 92    0.131644E+06    0.954363E+00  0.21269378E+00 -0.77892979E-01  0.49558987E+01  0.30644304E+01  0.18574167E+02  0.30634219E+01  0.21859870E-08  0.45253688E+00
 91    0.125295E+06    0.956680E+00  0.23158043E+00 -0.77918245E-01  0.53017173E+01  0.30647297E+01  0.19850249E+02  0.30638035E+01  0.23422530E-08  0.45317570E+00
 90    0.119292E+06    0.958892E+00  0.25073140E+00 -0.77953181E-01  0.56517091E+01  0.30650553E+01  0.21323875E+02  0.30632788E+01  0.25016252E-08  0.45536817E+00
 89    0.113642E+06    0.961005E+00  0.27010630E+00 -0.78006124E-01  0.60044469E+01  0.30656046E+01  0.23142569E+02  0.30642895E+01  0.26661503E-08  0.45696037E+00
 88    0.108341E+06    0.963024E+00  0.28967078E+00 -0.78071055E-01  0.63594373E+01  0.30661389E+01  0.25126900E+02  0.30636558E+01  0.28353312E-08  0.45936987E+00
 87    0.103379E+06    0.964955E+00  0.30939787E+00 -0.78158405E-01  0.67152711E+01  0.30669948E+01  0.27418070E+02  0.30622576E+01  0.30022813E-08  0.46637261E+00
 86    0.987438E+05    0.966804E+00  0.32926981E+00 -0.78287967E-01  0.70694271E+01  0.30684584E+01  0.30255054E+02  0.30653551E+01  0.31777970E-08  0.46933956E+00
 85    0.944161E+05    0.968577E+00  0.34926743E+00 -0.78443044E-01  0.74233595E+01  0.30697842E+01  0.33298736E+02  0.30674773E+01  0.33718875E-08  0.46791506E+00
 84    0.903684E+05    0.970276E+00  0.36937206E+00 -0.78614771E-01  0.77767166E+01  0.30711104E+01  0.36382216E+02  0.30647308E+01  0.35586734E-08  0.47531488E+00
 83    0.865799E+05    0.971908E+00  0.38958185E+00 -0.78836333E-01  0.81205245E+01  0.30735472E+01  0.39824299E+02  0.30650586E+01  0.37448492E-08  0.48784909E+00
 82    0.830335E+05    0.973477E+00  0.40989577E+00 -0.79123040E-01  0.84535385E+01  0.30768308E+01  0.43676264E+02  0.30691098E+01  0.39758722E-08  0.49428190E+00
 81    0.797059E+05    0.974985E+00  0.43030276E+00 -0.79465856E-01  0.87794978E+01  0.30803964E+01  0.47761137E+02  0.30712973E+01  0.42267338E-08  0.50069055E+00
 80    0.765732E+05    0.976436E+00  0.45080887E+00 -0.79872318E-01  0.90853052E+01  0.30848105E+01  0.52062484E+02  0.30740246E+01  0.44564105E-08  0.51220305E+00
 79    0.736146E+05    0.977834E+00  0.47143850E+00 -0.80350888E-01  0.93548701E+01  0.30903072E+01  0.56572248E+02  0.30815795E+01  0.46918784E-08  0.52031059E+00
 78    0.708098E+05    0.979179E+00  0.49222032E+00 -0.80878623E-01  0.95778995E+01  0.30960707E+01  0.61116625E+02  0.30950336E+01  0.49758718E-08  0.51396629E+00
 77    0.681363E+05    0.980475E+00  0.51318005E+00 -0.81385281E-01  0.97454594E+01  0.31004655E+01  0.65356213E+02  0.31131171E+01  0.53218969E-08  0.48494090E+00
 76    0.655695E+05    0.981723E+00  0.53434589E+00 -0.81748696E-01  0.98409560E+01  0.31011990E+01  0.68848955E+02  0.31348298E+01  0.58429620E-08  0.42270194E+00
 75    0.630822E+05    0.982924E+00  0.55570754E+00 -0.81787205E-01  0.98723030E+01  0.30947802E+01  0.71051098E+02 -0.31272047E+01  0.68502050E-08  0.31885683E+00
 74    0.606372E+05    0.984076E+00  0.57718270E+00 -0.81265107E-01  0.98696872E+01  0.30767577E+01  0.71337525E+02 -0.31140056E+01  0.87918713E-08  0.16972287E+00
 73    0.581894E+05    0.985180E+00  0.59864569E+00 -0.79906695E-01  0.98440106E+01  0.30422382E+01  0.69066935E+02 -0.31162551E+01  0.13196502E-07 -0.35355564E-01
 72    0.556881E+05    0.986233E+00  0.61990061E+00 -0.77400101E-01  0.98340322E+01  0.29856489E+01  0.63580816E+02  0.31365506E+01  0.27743317E-07 -0.26018516E+00
 71    0.530199E+05    0.987229E+00  0.64086011E+00 -0.74319952E-01  0.97193040E+01  0.29225787E+01  0.56146689E+02  0.30608952E+01  0.20736920E-01 -0.19356854E+01
 70    0.504140E+05    0.988168E+00  0.66158229E+00 -0.71377449E-01  0.94259897E+01  0.28860854E+01  0.48722785E+02  0.29462712E+01  0.19696220E-01 -0.25908849E+01
 69    0.479899E+05    0.989052E+00  0.68196437E+00 -0.68595290E-01  0.91954386E+01  0.28688559E+01  0.42462794E+02  0.28069896E+01  0.26963920E-01  0.28110368E+01
 68    0.456914E+05    0.989884E+00  0.70174662E+00 -0.66008939E-01  0.92601203E+01  0.28629032E+01  0.37833553E+02  0.26635714E+01  0.41504976E-01  0.24817839E+01
 67    0.434425E+05    0.990664E+00  0.72069949E+00 -0.63606304E-01  0.96446538E+01  0.28652444E+01  0.34496534E+02  0.25452303E+01  0.60047137E-01  0.23466583E+01
 66    0.411932E+05    0.991394E+00  0.73877619E+00 -0.61369566E-01  0.10137089E+02  0.28738320E+01  0.31725685E+02  0.24767802E+01  0.75068224E-01  0.22631746E+01
 65    0.389624E+05    0.992075E+00  0.75614671E+00 -0.59255858E-01  0.10342756E+02  0.28893950E+01  0.29149265E+02  0.24663129E+01  0.56423892E-01  0.20954478E+01
 64    0.368492E+05    0.992710E+00  0.77303525E+00 -0.57238256E-01  0.10065356E+02  0.29128623E+01  0.26935870E+02  0.25013678E+01  0.67705929E-07 -0.29708286E+01
 63    0.349284E+05    0.993303E+00  0.78944932E+00 -0.55592923E-01  0.96858833E+01  0.29319130E+01  0.25070150E+02  0.25570899E+01  0.15950484E-07 -0.30605761E+01
 62    0.331718E+05    0.993856E+00  0.80528172E+00 -0.54182676E-01  0.93785998E+01  0.29438480E+01  0.23587673E+02  0.26197102E+01  0.50784255E-08 -0.31136188E+01
 61    0.315536E+05    0.994372E+00  0.82047699E+00 -0.52906638E-01  0.90909509E+01  0.29467125E+01  0.22434621E+02  0.26823462E+01  0.11372093E-08 -0.27954335E+01
 60    0.300551E+05    0.994852E+00  0.83499435E+00 -0.51683297E-01  0.88087622E+01  0.29381140E+01  0.21536861E+02  0.27413629E+01  0.17539407E-08 -0.95757642E+00
 59    0.286567E+05    0.995297E+00  0.84879226E+00 -0.50440965E-01  0.85375969E+01  0.29143858E+01  0.20824766E+02  0.27948669E+01  0.44028103E-08 -0.96728579E+00
 58    0.273375E+05    0.995707E+00  0.86183110E+00 -0.49110903E-01  0.82822568E+01  0.28694654E+01  0.20238920E+02  0.28421007E+01  0.96054829E-08 -0.11238159E+01
 57    0.260744E+05    0.996084E+00  0.87407420E+00 -0.47617264E-01  0.80646975E+01  0.27928867E+01  0.19729275E+02  0.28829933E+01  0.26944332E-07 -0.12814077E+01
 56    0.248409E+05    0.996428E+00  0.88549875E+00 -0.45865184E-01  0.79338234E+01  0.26669268E+01  0.19250544E+02  0.29179647E+01  0.58086167E-05 -0.16407999E+01
 55    0.236087E+05    0.996738E+00  0.89612969E+00 -0.44076246E-01  0.80548593E+01  0.24786207E+01  0.18825727E+02  0.29424606E+01  0.12667739E+00 -0.24307183E+01
 54    0.223611E+05    0.997015E+00  0.90591362E+00 -0.41965565E-01  0.87829601E+01  0.22488107E+01  0.18416287E+02  0.29586525E+01  0.26312436E+00 -0.21791539E+01
 53    0.210835E+05    0.997258E+00  0.91478561E+00 -0.39386704E-01  0.10432362E+02  0.20323961E+01  0.17914257E+02  0.29683301E+01  0.36939079E+00 -0.20564350E+01
 52    0.197836E+05    0.997468E+00  0.92261539E+00 -0.36271172E-01  0.12949604E+02  0.18944709E+01  0.17192641E+02  0.29731592E+01  0.35483392E+00 -0.20205596E+01
 51    0.184590E+05    0.997646E+00  0.92921763E+00 -0.32640556E-01  0.16898621E+02  0.18403714E+01  0.16371581E+02  0.29726747E+01  0.39392281E+00 -0.17618726E+01
 50    0.170133E+05    0.997793E+00  0.93440566E+00 -0.28509069E-01  0.24341856E+02  0.18519073E+01  0.15811158E+02  0.29698981E+01  0.87322424E+00 -0.12585651E+01
 49    0.154085E+05    0.997912E+00  0.93808282E+00 -0.24203358E-01  0.30583632E+02  0.19281788E+01  0.14946720E+02  0.29585148E+01  0.21363833E+00  0.20736776E+01
 48    0.141166E+05    0.998006E+00  0.94059955E+00 -0.20821812E-01  0.25003720E+02  0.20593033E+01  0.14018039E+02  0.29318168E+01  0.58888537E+00  0.21886148E+01
 47    0.132874E+05    0.998082E+00  0.94231796E+00 -0.18270716E-01  0.20045135E+02  0.21934063E+01  0.13274239E+02  0.28962375E+01  0.39108041E+00  0.22310525E+01
 46    0.127191E+05    0.998143E+00  0.94346239E+00 -0.16278620E-01  0.17907904E+02  0.23014832E+01  0.12713186E+02  0.28564578E+01  0.28851857E+00  0.22608661E+01
 45    0.122892E+05    0.998192E+00  0.94419546E+00 -0.14683456E-01  0.17289973E+02  0.23822873E+01  0.12303399E+02  0.28160168E+01  0.23526715E+00  0.22989505E+01
 44    0.119425E+05    0.998232E+00  0.94463888E+00 -0.13388840E-01  0.17472208E+02  0.24426596E+01  0.12011158E+02  0.27773725E+01  0.20585714E+00  0.23417040E+01
 43    0.116522E+05    0.998264E+00  0.94488286E+00 -0.12330320E-01  0.18122486E+02  0.24884992E+01  0.11806905E+02  0.27420043E+01  0.18917383E+00  0.23883933E+01
 42    0.114036E+05    0.998291E+00  0.94499319E+00 -0.11461023E-01  0.19068879E+02  0.25239591E+01  0.11666647E+02  0.27106038E+01  0.17877991E+00  0.24340335E+01
 41    0.111880E+05    0.998312E+00  0.94501690E+00 -0.10745064E-01  0.20206165E+02  0.25518380E+01  0.11571897E+02  0.26833356E+01  0.17260147E+00  0.24784838E+01
 40    0.110000E+05    0.998330E+00  0.94498730E+00 -0.10154394E-01  0.21457805E+02  0.25740298E+01  0.11508895E+02  0.26600269E+01  0.16938180E+00  0.25221348E+01
 39    0.108202E+05    0.998347E+00  0.94491100E+00 -0.95673301E-02  0.22900272E+02  0.25934882E+01  0.11460534E+02  0.26362780E+01  0.16803641E+00  0.25676276E+01
 38    0.106291E+05    0.998364E+00  0.94478588E+00 -0.89837023E-02  0.24713635E+02  0.26123766E+01  0.11426999E+02  0.26122743E+01  0.16815881E+00  0.26183430E+01
 37    0.104241E+05    0.998381E+00  0.94461051E+00 -0.84038676E-02  0.26999836E+02  0.26307047E+01  0.11408204E+02  0.25882366E+01  0.17284624E+00  0.26821980E+01
 36    0.102015E+05    0.998397E+00  0.94438360E+00 -0.78281853E-02  0.29888353E+02  0.26484533E+01  0.11403712E+02  0.25644215E+01  0.18631589E+00  0.27642707E+01
 35    0.995708E+04    0.998413E+00  0.94410618E+00 -0.72581868E-02  0.33516761E+02  0.26654819E+01  0.11412573E+02  0.25411425E+01  0.21989410E+00  0.28681640E+01
 34    0.968635E+04    0.998429E+00  0.94378356E+00 -0.66972131E-02  0.37951255E+02  0.26814406E+01  0.11433148E+02  0.25187566E+01  0.29460206E+00  0.29801648E+01
 33    0.938583E+04    0.998444E+00  0.94343217E+00 -0.61534467E-02  0.42923536E+02  0.26955540E+01  0.11462764E+02  0.24976884E+01  0.44617883E+00  0.30722242E+01
 32    0.905763E+04    0.998458E+00  0.94308986E+00 -0.56440675E-02  0.47208594E+02  0.27064708E+01  0.11497227E+02  0.24785043E+01  0.68906752E+00  0.31248698E+01
 31    0.871737E+04    0.998472E+00  0.94282037E+00 -0.51964562E-02  0.48286852E+02  0.27127861E+01  0.11530589E+02  0.24620666E+01  0.93223961E+00 -0.31396345E+01
